PE IR       SPECTRUM    SPECTRUM    ASCII       PEDS        1.60        
  -1
S2GT_A~1.ASC
18/02/16
12:25:58.00
18/02/16
12:25:58.00
pux
Spectrum at -15332,-1388,-5987 Micrometers
Aperture: 100,100
700.000000
50









2002,4.07    
NB025MCT
MIR
OPTKBR

2.000000
1
4.000000
STRONG
RATIO
SPECTRUM (%T)
SELF 256
AUTOIMAGE MICROSCOPE
DOUBLE
50
COMBINED
1
0
0


1.000000
RATIO


1
0
TRUE
00000000
0
 0
NONE
NONE
700
21.200000
12.491000
52111
TRUE
1 0 8 72 0 0 0 0 

15798.010000






#HDR
-1
-1
#GR
CM-1
%T
0.00002384185791015625
0.0
4000.000000
-1.000000
3301
8
101.345396
0.403380
#DATA
4000.000000	11.102890  
3999.000000	11.408877  
3998.000000	11.523580  
3997.000000	11.379909  
3996.000000	11.295175  
3995.000000	11.548042  
3994.000000	12.059140  
3993.000000	12.409663  
3992.000000	12.237501  
3991.000000	11.574625  
3990.000000	10.869956  
3989.000000	10.612893  
3988.000000	10.924291  
3987.000000	11.518883  
3986.000000	12.027168  
3985.000000	12.341356  
3984.000000	12.650203  
3983.000000	13.143134  
3982.000000	13.740825  
3981.000000	14.153647  
3980.000000	14.225840  
3979.000000	14.129519  
3978.000000	14.117527  
3977.000000	14.176654  
3976.000000	14.108133  
3975.000000	13.910531  
3974.000000	13.853621  
3973.000000	14.125275  
3972.000000	14.563536  
3971.000000	14.841985  
3970.000000	14.874887  
3969.000000	14.885878  
3968.000000	15.069365  
3967.000000	15.278744  
3966.000000	15.206241  
3965.000000	14.802122  
3964.000000	14.390683  
3963.000000	14.330053  
3962.000000	14.657878  
3961.000000	15.094399  
3960.000000	15.337705  
3959.000000	15.332126  
3958.000000	15.241575  
3957.000000	15.181422  
3956.000000	15.031671  
3955.000000	14.603877  
3954.000000	13.932847  
3953.000000	13.281655  
3952.000000	12.870168  
3951.000000	12.726879  
3950.000000	12.793707  
3949.000000	13.035988  
3948.000000	13.409137  
3947.000000	13.817429  
3946.000000	14.181876  
3945.000000	14.508724  
3944.000000	14.841938  
3943.000000	15.150523  
3942.000000	15.319371  
3941.000000	15.295815  
3940.000000	15.183258  
3939.000000	15.099096  
3938.000000	15.006613  
3937.000000	14.775776  
3936.000000	14.381718  
3935.000000	13.938736  
3934.000000	13.603758  
3933.000000	13.484215  
3932.000000	13.604736  
3931.000000	13.884568  
3930.000000	14.150595  
3929.000000	14.215970  
3928.000000	13.995456  
3927.000000	13.565969  
3926.000000	13.111209  
3925.000000	12.791228  
3924.000000	12.663531  
3923.000000	12.728238  
3922.000000	12.997484  
3921.000000	13.481497  
3920.000000	14.126825  
3919.000000	14.806556  
3918.000000	15.376615  
3917.000000	15.782141  
3916.000000	16.097640  
3915.000000	16.419649  
3914.000000	16.707491  
3913.000000	16.814041  
3912.000000	16.703295  
3911.000000	16.582942  
3910.000000	16.732645  
3909.000000	17.197346  
3908.000000	17.700862  
3907.000000	17.969179  
3906.000000	18.106174  
3905.000000	18.465948  
3904.000000	19.115805  
3903.000000	19.681262  
3902.000000	19.856166  
3901.000000	19.788455  
3900.000000	19.816851  
3899.000000	20.044779  
3898.000000	20.310115  
3897.000000	20.417094  
3896.000000	20.324969  
3895.000000	20.198535  
3894.000000	20.301842  
3893.000000	20.749974  
3892.000000	21.343827  
3891.000000	21.722292  
3890.000000	21.716690  
3889.000000	21.544146  
3888.000000	21.586370  
3887.000000	21.945667  
3886.000000	22.285985  
3885.000000	22.218513  
3884.000000	21.788787  
3883.000000	21.491217  
3882.000000	21.756744  
3881.000000	22.481179  
3880.000000	23.153424  
3879.000000	23.439979  
3878.000000	23.488521  
3877.000000	23.634839  
3876.000000	23.961734  
3875.000000	24.273324  
3874.000000	24.366545  
3873.000000	24.209570  
3872.000000	23.889970  
3871.000000	23.521947  
3870.000000	23.264193  
3869.000000	23.319458  
3868.000000	23.745083  
3867.000000	24.282550  
3866.000000	24.495148  
3865.000000	24.156856  
3864.000000	23.462367  
3863.000000	22.803688  
3862.000000	22.411108  
3861.000000	22.246003  
3860.000000	22.170853  
3859.000000	22.094368  
3858.000000	21.912002  
3857.000000	21.459126  
3856.000000	20.712256  
3855.000000	19.988179  
3854.000000	19.760727  
3853.000000	20.207953  
3852.000000	20.987534  
3851.000000	21.518492  
3850.000000	21.510648  
3849.000000	21.154522  
3848.000000	20.825982  
3847.000000	20.689845  
3846.000000	20.646500  
3845.000000	20.568609  
3844.000000	20.471739  
3843.000000	20.465517  
3842.000000	20.592904  
3841.000000	20.738768  
3840.000000	20.703530  
3839.000000	20.368671  
3838.000000	19.803166  
3837.000000	19.210147  
3836.000000	18.763017  
3835.000000	18.479204  
3834.000000	18.220019  
3833.000000	17.824101  
3832.000000	17.267251  
3831.000000	16.694784  
3830.000000	16.288948  
3829.000000	16.082239  
3828.000000	15.918803  
3827.000000	15.630364  
3826.000000	15.211510  
3825.000000	14.798021  
3824.000000	14.515566  
3823.000000	14.384484  
3822.000000	14.350152  
3821.000000	14.359569  
3820.000000	14.411759  
3819.000000	14.526224  
3818.000000	14.683842  
3817.000000	14.799857  
3816.000000	14.757084  
3815.000000	14.488911  
3814.000000	14.080500  
3813.000000	13.756179  
3812.000000	13.704538  
3811.000000	13.900613  
3810.000000	14.162039  
3809.000000	14.352011  
3808.000000	14.448118  
3807.000000	14.446115  
3806.000000	14.318728  
3805.000000	14.082455  
3804.000000	13.863968  
3803.000000	13.820099  
3802.000000	13.980746  
3801.000000	14.184165  
3800.000000	14.214897  
3799.000000	13.976883  
3798.000000	13.531398  
3797.000000	13.021755  
3796.000000	12.592482  
3795.000000	12.302875  
3794.000000	12.038683  
3793.000000	11.603021  
3792.000000	10.944271  
3791.000000	10.232830  
3790.000000	9.673213   
3789.000000	9.320855   
3788.000000	9.096026   
3787.000000	8.892154   
3786.000000	8.642220   
3785.000000	8.377957   
3784.000000	8.230304   
3783.000000	8.300876   
3782.000000	8.550190   
3781.000000	8.882379   
3780.000000	9.285259   
3779.000000	9.778332   
3778.000000	10.299396  
3777.000000	10.756540  
3776.000000	11.162018  
3775.000000	11.578297  
3774.000000	11.986970  
3773.000000	12.284445  
3772.000000	12.422037  
3771.000000	12.463998  
3770.000000	12.507820  
3769.000000	12.552022  
3768.000000	12.481021  
3767.000000	12.220501  
3766.000000	11.868739  
3765.000000	11.642932  
3764.000000	11.701440  
3763.000000	12.021183  
3762.000000	12.386536  
3761.000000	12.531900  
3760.000000	12.388277  
3759.000000	12.181115  
3758.000000	12.164926  
3757.000000	12.271070  
3756.000000	12.153196  
3755.000000	11.610388  
3754.000000	10.851573  
3753.000000	10.290336  
3752.000000	10.162925  
3751.000000	10.348010  
3750.000000	10.505843  
3749.000000	10.407376  
3748.000000	10.138034  
3747.000000	9.919929   
3746.000000	9.780097   
3745.000000	9.500718   
3744.000000	8.937644   
3743.000000	8.258247   
3742.000000	7.763552   
3741.000000	7.492518   
3740.000000	7.124328   
3739.000000	6.430029   
3738.000000	5.723428   
3737.000000	5.545377   
3736.000000	5.891394   
3735.000000	6.137323   
3734.000000	5.802893   
3733.000000	5.077886   
3732.000000	4.470229   
3731.000000	4.203486   
3730.000000	4.132318   
3729.000000	4.079103   
3728.000000	4.059600   
3727.000000	4.134964   
3726.000000	4.221272   
3725.000000	4.210114   
3724.000000	4.196238   
3723.000000	4.368495   
3722.000000	4.688096   
3721.000000	4.858207   
3720.000000	4.659056   
3719.000000	4.184484   
3718.000000	3.730607   
3717.000000	3.504085   
3716.000000	3.535437   
3715.000000	3.818535   
3714.000000	4.388809   
3713.000000	5.121254   
3712.000000	5.668616   
3711.000000	5.736446   
3710.000000	5.345106   
3709.000000	4.729175   
3708.000000	4.147100   
3707.000000	3.827762   
3706.000000	3.933429   
3705.000000	4.457855   
3704.000000	5.236959   
3703.000000	6.092786   
3702.000000	6.927251   
3701.000000	7.707118   
3700.000000	8.429789   
3699.000000	9.100556   
3698.000000	9.710097   
3697.000000	10.213136  
3696.000000	10.555672  
3695.000000	10.714483  
3694.000000	10.737061  
3693.000000	10.723853  
3692.000000	10.755014  
3691.000000	10.864830  
3690.000000	11.059713  
3689.000000	11.324286  
3688.000000	11.574792  
3687.000000	11.663579  
3686.000000	11.512565  
3685.000000	11.177062  
3684.000000	10.768079  
3683.000000	10.323381  
3682.000000	9.821867   
3681.000000	9.295845   
3680.000000	8.895039   
3679.000000	8.827185   
3678.000000	9.210801   
3677.000000	9.923791   
3676.000000	10.626220  
3675.000000	11.007308  
3674.000000	11.016225  
3673.000000	10.804057  
3672.000000	10.511255  
3671.000000	10.244774  
3670.000000	10.167384  
3669.000000	10.396575  
3668.000000	10.835933  
3667.000000	11.276841  
3666.000000	11.625456  
3665.000000	11.901664  
3664.000000	12.155675  
3663.000000	12.458729  
3662.000000	12.870931  
3661.000000	13.304686  
3660.000000	13.501167  
3659.000000	13.341283  
3658.000000	13.013935  
3657.000000	12.757492  
3656.000000	12.567377  
3655.000000	12.246036  
3654.000000	11.739277  
3653.000000	11.335492  
3652.000000	11.552286  
3651.000000	12.675237  
3650.000000	14.188361  
3649.000000	14.849925  
3648.000000	13.760185  
3647.000000	11.418747  
3646.000000	9.454774   
3645.000000	9.218859   
3644.000000	10.758590  
3643.000000	13.062238  
3642.000000	15.008735  
3641.000000	16.048359  
3640.000000	16.238713  
3639.000000	15.933203  
3638.000000	15.528297  
3637.000000	15.363502  
3636.000000	15.584063  
3635.000000	16.040897  
3634.000000	16.398358  
3633.000000	16.443276  
3632.000000	16.296887  
3631.000000	16.258430  
3630.000000	16.443657  
3629.000000	16.702699  
3628.000000	16.862535  
3627.000000	16.945552  
3626.000000	17.046403  
3625.000000	17.174887  
3624.000000	17.302680  
3623.000000	17.386603  
3622.000000	17.367744  
3621.000000	17.308735  
3620.000000	17.487883  
3619.000000	18.144202  
3618.000000	19.119691  
3617.000000	19.961571  
3616.000000	20.405101  
3615.000000	20.635104  
3614.000000	21.029853  
3613.000000	21.699547  
3612.000000	22.365283  
3611.000000	22.712731  
3610.000000	22.745919  
3609.000000	22.698473  
3608.000000	22.720456  
3607.000000	22.762250  
3606.000000	22.707557  
3605.000000	22.503900  
3604.000000	22.200560  
3603.000000	21.937704  
3602.000000	21.881628  
3601.000000	22.099304  
3600.000000	22.449779  
3599.000000	22.651195  
3598.000000	22.560238  
3597.000000	22.391748  
3596.000000	22.524285  
3595.000000	23.052597  
3594.000000	23.672986  
3593.000000	24.038910  
3592.000000	24.090695  
3591.000000	24.024701  
3590.000000	24.103593  
3589.000000	24.486684  
3588.000000	25.117659  
3587.000000	25.793766  
3586.000000	26.398110  
3585.000000	26.997017  
3584.000000	27.637434  
3583.000000	28.177952  
3582.000000	28.460645  
3581.000000	28.547883  
3580.000000	28.630161  
3579.000000	28.738975  
3578.000000	28.641748  
3577.000000	28.121662  
3576.000000	27.320003  
3575.000000	26.719260  
3574.000000	26.724076  
3573.000000	27.289533  
3572.000000	27.994537  
3571.000000	28.436088  
3570.000000	28.516221  
3569.000000	28.435540  
3568.000000	28.485155  
3567.000000	28.804802  
3566.000000	29.327464  
3565.000000	29.953122  
3564.000000	30.682373  
3563.000000	31.472730  
3562.000000	32.108116  
3561.000000	32.408571  
3560.000000	32.503771  
3559.000000	32.701754  
3558.000000	33.101296  
3557.000000	33.487272  
3556.000000	33.607935  
3555.000000	33.445262  
3554.000000	33.178186  
3553.000000	32.987928  
3552.000000	32.920217  
3551.000000	32.929611  
3550.000000	33.016610  
3549.000000	33.260560  
3548.000000	33.616161  
3547.000000	33.778309  
3546.000000	33.423900  
3545.000000	32.638955  
3544.000000	31.898283  
3543.000000	31.588459  
3542.000000	31.676197  
3541.000000	31.890702  
3540.000000	32.047700  
3539.000000	32.110357  
3538.000000	32.083272  
3537.000000	31.951117  
3536.000000	31.703257  
3535.000000	31.389880  
3534.000000	31.092476  
3533.000000	30.831575  
3532.000000	30.560898  
3531.000000	30.276012  
3530.000000	30.103993  
3529.000000	30.274438  
3528.000000	30.987429  
3527.000000	32.168698  
3526.000000	33.281445  
3525.000000	33.658504  
3524.000000	33.201503  
3523.000000	32.547926  
3522.000000	32.391858  
3521.000000	32.797265  
3520.000000	33.314967  
3519.000000	33.559989  
3518.000000	33.499765  
3517.000000	33.326888  
3516.000000	33.221387  
3515.000000	33.238148  
3514.000000	33.345341  
3513.000000	33.487677  
3512.000000	33.586120  
3511.000000	33.518409  
3510.000000	33.173942  
3509.000000	32.566452  
3508.000000	31.872606  
3507.000000	31.335449  
3506.000000	31.119108  
3505.000000	31.174349  
3504.000000	31.260275  
3503.000000	31.121945  
3502.000000	30.684161  
3501.000000	30.078649  
3500.000000	29.559063  
3499.000000	29.362821  
3498.000000	29.575252  
3497.000000	30.024266  
3496.000000	30.411958  
3495.000000	30.628204  
3494.000000	30.828857  
3493.000000	31.185221  
3492.000000	31.690120  
3491.000000	32.282257  
3490.000000	32.981801  
3489.000000	33.811974  
3488.000000	34.702539  
3487.000000	35.542845  
3486.000000	36.248254  
3485.000000	36.752367  
3484.000000	36.969852  
3483.000000	36.817955  
3482.000000	36.304426  
3481.000000	35.558915  
3480.000000	34.741044  
3479.000000	33.925318  
3478.000000	33.157300  
3477.000000	32.505416  
3476.000000	31.980419  
3475.000000	31.463074  
3474.000000	30.888581  
3473.000000	30.365204  
3472.000000	30.029153  
3471.000000	29.789304  
3470.000000	29.370379  
3469.000000	28.619098  
3468.000000	27.705192  
3467.000000	26.938939  
3466.000000	26.381039  
3465.000000	25.815320  
3464.000000	25.095772  
3463.000000	24.360084  
3462.000000	23.784327  
3461.000000	23.361325  
3460.000000	22.992277  
3459.000000	22.682929  
3458.000000	22.548747  
3457.000000	22.722601  
3456.000000	23.279047  
3455.000000	24.185991  
3454.000000	25.289845  
3453.000000	26.364421  
3452.000000	27.252292  
3451.000000	27.973103  
3450.000000	28.709936  
3449.000000	29.598188  
3448.000000	30.581617  
3447.000000	31.503748  
3446.000000	32.314515  
3445.000000	33.081078  
3444.000000	33.833003  
3443.000000	34.455537  
3442.000000	34.804558  
3441.000000	34.914064  
3440.000000	35.042142  
3439.000000	35.481238  
3438.000000	36.289858  
3437.000000	37.245440  
3436.000000	38.005518  
3435.000000	38.351464  
3434.000000	38.292145  
3433.000000	38.013434  
3432.000000	37.740969  
3431.000000	37.631225  
3430.000000	37.700629  
3429.000000	37.830805  
3428.000000	37.867569  
3427.000000	37.732625  
3426.000000	37.424349  
3425.000000	36.965847  
3424.000000	36.439013  
3423.000000	35.989880  
3422.000000	35.692572  
3421.000000	35.426092  
3420.000000	35.008215  
3419.000000	34.400439  
3418.000000	33.749723  
3417.000000	33.242511  
3416.000000	32.979917  
3415.000000	32.976889  
3414.000000	33.203196  
3413.000000	33.567357  
3412.000000	33.870577  
3411.000000	33.890938  
3410.000000	33.566999  
3409.000000	33.053135  
3408.000000	32.559561  
3407.000000	32.189893  
3406.000000	31.949210  
3405.000000	31.846904  
3404.000000	31.913590  
3403.000000	32.120203  
3402.000000	32.352209  
3401.000000	32.526850  
3400.000000	32.701897  
3399.000000	32.963442  
3398.000000	33.228611  
3397.000000	33.277964  
3396.000000	32.985258  
3395.000000	32.447338  
3394.000000	31.881427  
3393.000000	31.454730  
3392.000000	31.219625  
3391.000000	31.141138  
3390.000000	31.171512  
3389.000000	31.281828  
3388.000000	31.459712  
3387.000000	31.711101  
3386.000000	32.012605  
3385.000000	32.256531  
3384.000000	32.279920  
3383.000000	32.006144  
3382.000000	31.529831  
3381.000000	31.046032  
3380.000000	30.727744  
3379.000000	30.676269  
3378.000000	30.898618  
3377.000000	31.279969  
3376.000000	31.615209  
3375.000000	31.707620  
3374.000000	31.475996  
3373.000000	31.005311  
3372.000000	30.520176  
3371.000000	30.246591  
3370.000000	30.221486  
3369.000000	30.252170  
3368.000000	30.130839  
3367.000000	29.857850  
3366.000000	29.595017  
3365.000000	29.434108  
3364.000000	29.269647  
3363.000000	28.925800  
3362.000000	28.350019  
3361.000000	27.677249  
3360.000000	27.120137  
3359.000000	26.795053  
3358.000000	26.651239  
3357.000000	26.561474  
3356.000000	26.458048  
3355.000000	26.363897  
3354.000000	26.311850  
3353.000000	26.308393  
3352.000000	26.366615  
3351.000000	26.486253  
3350.000000	26.593327  
3349.000000	26.593852  
3348.000000	26.501727  
3347.000000	26.443099  
3346.000000	26.515841  
3345.000000	26.697492  
3344.000000	26.899409  
3343.000000	27.041029  
3342.000000	27.080345  
3341.000000	27.034091  
3340.000000	26.990675  
3339.000000	27.077341  
3338.000000	27.379035  
3337.000000	27.850627  
3336.000000	28.322172  
3335.000000	28.625988  
3334.000000	28.731417  
3333.000000	28.753232  
3332.000000	28.831529  
3331.000000	29.016613  
3330.000000	29.235744  
3329.000000	29.346823  
3328.000000	29.286837  
3327.000000	29.184150  
3326.000000	29.236841  
3325.000000	29.473280  
3324.000000	29.735612  
3323.000000	29.897379  
3322.000000	29.944586  
3321.000000	29.867005  
3320.000000	29.668164  
3319.000000	29.476308  
3318.000000	29.447484  
3317.000000	29.556345  
3316.000000	29.639053  
3315.000000	29.625964  
3314.000000	29.581403  
3313.000000	29.531955  
3312.000000	29.419469  
3311.000000	29.208588  
3310.000000	28.958606  
3309.000000	28.774571  
3308.000000	28.710532  
3307.000000	28.734374  
3306.000000	28.790712  
3305.000000	28.876376  
3304.000000	29.037809  
3303.000000	29.285430  
3302.000000	29.523992  
3301.000000	29.575705  
3300.000000	29.292416  
3299.000000	28.698945  
3298.000000	28.048276  
3297.000000	27.680850  
3296.000000	27.777552  
3295.000000	28.225398  
3294.000000	28.711485  
3293.000000	28.975486  
3292.000000	28.966426  
3291.000000	28.812837  
3290.000000	28.668689  
3289.000000	28.562116  
3288.000000	28.411698  
3287.000000	28.205204  
3286.000000	28.105449  
3285.000000	28.323745  
3284.000000	28.995442  
3283.000000	30.208778  
3282.000000	31.955385  
3281.000000	33.835029  
3280.000000	35.124039  
3279.000000	35.351133  
3278.000000	34.812021  
3277.000000	34.298110  
3276.000000	34.350681  
3275.000000	34.870767  
3274.000000	35.437083  
3273.000000	35.859036  
3272.000000	36.329388  
3271.000000	37.090349  
3270.000000	38.140892  
3269.000000	39.344143  
3268.000000	40.658473  
3267.000000	42.103385  
3266.000000	43.536067  
3265.000000	44.596695  
3264.000000	44.980645  
3263.000000	44.746279  
3262.000000	44.273447  
3261.000000	43.949699  
3260.000000	43.924188  
3259.000000	44.152092  
3258.000000	44.568419  
3257.000000	45.144367  
3256.000000	45.860505  
3255.000000	46.659946  
3254.000000	47.471809  
3253.000000	48.214721  
3252.000000	48.805356  
3251.000000	49.185609  
3250.000000	49.441337  
3249.000000	49.785614  
3248.000000	50.379776  
3247.000000	51.140832  
3246.000000	51.807427  
3245.000000	52.184271  
3244.000000	52.302384  
3243.000000	52.356863  
3242.000000	52.495980  
3241.000000	52.688312  
3240.000000	52.791571  
3239.000000	52.744364  
3238.000000	52.642822  
3237.000000	52.596402  
3236.000000	52.571129  
3235.000000	52.466821  
3234.000000	52.301025  
3233.000000	52.204394  
3232.000000	52.249431  
3231.000000	52.410960  
3230.000000	52.628493  
3229.000000	52.835822  
3228.000000	52.922201  
3227.000000	52.802228  
3226.000000	52.504396  
3225.000000	52.156281  
3224.000000	51.890707  
3223.000000	51.778078  
3222.000000	51.812195  
3221.000000	51.941680  
3220.000000	52.074813  
3219.000000	52.072978  
3218.000000	51.803135  
3217.000000	51.242709  
3216.000000	50.491762  
3215.000000	49.692249  
3214.000000	49.004364  
3213.000000	48.615622  
3212.000000	48.627400  
3211.000000	48.900437  
3210.000000	49.102020  
3209.000000	48.975038  
3208.000000	48.545908  
3207.000000	48.045229  
3206.000000	47.644066  
3205.000000	47.309827  
3204.000000	46.949982  
3203.000000	46.575784  
3202.000000	46.242094  
3201.000000	45.897006  
3200.000000	45.436167  
3199.000000	44.863080  
3198.000000	44.294095  
3197.000000	43.808221  
3196.000000	43.370127  
3195.000000	42.884564  
3194.000000	42.312598  
3193.000000	41.670465  
3192.000000	40.959143  
3191.000000	40.154099  
3190.000000	39.312791  
3189.000000	38.569188  
3188.000000	37.980985  
3187.000000	37.470960  
3186.000000	36.943864  
3185.000000	36.332464  
3184.000000	35.550832  
3183.000000	34.561395  
3182.000000	33.500695  
3181.000000	32.576465  
3180.000000	31.837630  
3179.000000	31.147408  
3178.000000	30.374908  
3177.000000	29.502391  
3176.000000	28.570270  
3175.000000	27.614951  
3174.000000	26.671504  
3173.000000	25.776004  
3172.000000	24.965095  
3171.000000	24.236416  
3170.000000	23.571944  
3169.000000	22.986102  
3168.000000	22.547149  
3167.000000	22.292780  
3166.000000	22.186064  
3165.000000	22.129368  
3164.000000	21.997261  
3163.000000	21.616220  
3162.000000	20.895624  
3161.000000	20.007157  
3160.000000	19.351291  
3159.000000	19.243240  
3158.000000	19.658565  
3157.000000	20.279312  
3156.000000	20.760297  
3155.000000	20.958971  
3154.000000	20.988512  
3153.000000	21.085929  
3152.000000	21.390676  
3151.000000	21.853494  
3150.000000	22.307467  
3149.000000	22.641611  
3148.000000	22.849631  
3147.000000	23.015999  
3146.000000	23.226451  
3145.000000	23.521995  
3144.000000	23.822522  
3143.000000	23.992419  
3142.000000	23.935604  
3141.000000	23.721766  
3140.000000	23.568558  
3139.000000	23.721098  
3138.000000	24.314570  
3137.000000	25.373220  
3136.000000	26.885652  
3135.000000	28.768754  
3134.000000	30.769562  
3133.000000	32.559394  
3132.000000	33.995389  
3131.000000	35.189294  
3130.000000	36.315155  
3129.000000	37.442421  
3128.000000	38.564944  
3127.000000	39.670491  
3126.000000	40.704774  
3125.000000	41.532015  
3124.000000	42.003297  
3123.000000	42.110991  
3122.000000	42.024779  
3121.000000	41.950607  
3120.000000	41.915798  
3119.000000	41.787672  
3118.000000	41.445016  
3117.000000	40.975618  
3116.000000	40.568494  
3115.000000	40.314006  
3114.000000	40.088772  
3113.000000	39.726567  
3112.000000	39.182925  
3111.000000	38.558411  
3110.000000	37.960171  
3109.000000	37.442374  
3108.000000	37.015318  
3107.000000	36.680126  
3106.000000	36.387753  
3105.000000	36.032986  
3104.000000	35.563397  
3103.000000	35.084843  
3102.000000	34.750151  
3101.000000	34.542584  
3100.000000	34.277725  
3099.000000	33.838438  
3098.000000	33.300232  
3097.000000	32.810473  
3096.000000	32.429814  
3095.000000	32.113623  
3094.000000	31.783628  
3093.000000	31.417155  
3092.000000	31.080675  
3091.000000	30.856513  
3090.000000	30.733489  
3089.000000	30.589985  
3088.000000	30.296540  
3087.000000	29.835271  
3086.000000	29.309892  
3085.000000	28.849673  
3084.000000	28.505229  
3083.000000	28.255987  
3082.000000	28.076601  
3081.000000	27.942013  
3080.000000	27.759742  
3079.000000	27.397179  
3078.000000	26.811981  
3077.000000	26.142716  
3076.000000	25.615262  
3075.000000	25.346755  
3074.000000	25.255203  
3073.000000	25.180172  
3072.000000	25.059080  
3071.000000	24.953317  
3070.000000	24.942994  
3069.000000	25.046730  
3068.000000	25.257349  
3067.000000	25.579428  
3066.000000	26.011347  
3065.000000	26.503920  
3064.000000	26.996517  
3063.000000	27.495193  
3062.000000	28.062438  
3061.000000	28.680825  
3060.000000	29.215455  
3059.000000	29.558014  
3058.000000	29.776120  
3057.000000	30.032896  
3056.000000	30.405282  
3055.000000	30.826067  
3054.000000	31.179857  
3053.000000	31.409311  
3052.000000	31.532645  
3051.000000	31.587123  
3050.000000	31.586837  
3049.000000	31.530117  
3048.000000	31.439471  
3047.000000	31.367635  
3046.000000	31.349253  
3045.000000	31.367993  
3044.000000	31.401777  
3043.000000	31.460857  
3042.000000	31.534671  
3041.000000	31.567668  
3040.000000	31.578826  
3039.000000	31.718087  
3038.000000	32.072758  
3037.000000	32.479453  
3036.000000	32.669925  
3035.000000	32.555389  
3034.000000	32.274985  
3033.000000	32.017254  
3032.000000	31.872391  
3031.000000	31.840062  
3030.000000	31.899929  
3029.000000	32.048249  
3028.000000	32.275557  
3027.000000	32.548475  
3026.000000	32.828140  
3025.000000	33.072447  
3024.000000	33.208918  
3023.000000	33.171010  
3022.000000	32.997393  
3021.000000	32.833123  
3020.000000	32.799243  
3019.000000	32.904052  
3018.000000	33.078575  
3017.000000	33.237838  
3016.000000	33.333277  
3015.000000	33.417677  
3014.000000	33.611106  
3013.000000	33.916020  
3012.000000	34.137892  
3011.000000	34.110593  
3010.000000	33.926630  
3009.000000	33.827829  
3008.000000	33.924818  
3007.000000	34.148430  
3006.000000	34.380459  
3005.000000	34.525632  
3004.000000	34.526491  
3003.000000	34.413623  
3002.000000	34.288024  
3001.000000	34.221911  
3000.000000	34.214186  
2999.000000	34.259438  
2998.000000	34.365296  
2997.000000	34.491872  
2996.000000	34.528708  
2995.000000	34.390735  
2994.000000	34.121394  
2993.000000	33.865523  
2992.000000	33.699321  
2991.000000	33.527994  
2990.000000	33.220362  
2989.000000	32.804918  
2988.000000	32.431244  
2987.000000	32.161498  
2986.000000	31.907081  
2985.000000	31.583690  
2984.000000	31.221413  
2983.000000	30.920338  
2982.000000	30.749750  
2981.000000	30.689358  
2980.000000	30.646514  
2979.000000	30.550527  
2978.000000	30.437111  
2977.000000	30.415463  
2976.000000	30.543351  
2975.000000	30.766558  
2974.000000	31.001996  
2973.000000	31.248188  
2972.000000	31.577658  
2971.000000	32.004547  
2970.000000	32.394075  
2969.000000	32.563543  
2968.000000	32.479190  
2967.000000	32.308578  
2966.000000	32.249498  
2965.000000	32.319164  
2964.000000	32.332563  
2963.000000	32.104539  
2962.000000	31.647014  
2961.000000	31.141018  
2960.000000	30.745410  
2959.000000	30.482196  
2958.000000	30.273795  
2957.000000	30.014181  
2956.000000	29.630851  
2955.000000	29.150247  
2954.000000	28.682184  
2953.000000	28.275132  
2952.000000	27.853465  
2951.000000	27.330088  
2950.000000	26.749253  
2949.000000	26.237797  
2948.000000	25.892043  
2947.000000	25.745892  
2946.000000	25.806546  
2945.000000	26.054024  
2944.000000	26.436138  
2943.000000	26.878094  
2942.000000	27.329874  
2941.000000	27.793741  
2940.000000	28.308629  
2939.000000	28.898549  
2938.000000	29.515814  
2937.000000	30.044937  
2936.000000	30.384755  
2935.000000	30.538797  
2934.000000	30.639171  
2933.000000	30.858945  
2932.000000	31.297254  
2931.000000	31.885480  
2930.000000	32.396221  
2929.000000	32.585287  
2928.000000	32.402324  
2927.000000	32.044625  
2926.000000	31.795835  
2925.000000	31.791305  
2924.000000	31.950306  
2923.000000	32.080101  
2922.000000	32.004308  
2921.000000	31.602382  
2920.000000	30.772542  
2919.000000	29.531073  
2918.000000	28.164076  
2917.000000	27.126097  
2916.000000	26.672148  
2915.000000	26.707148  
2914.000000	26.989936  
2913.000000	27.320003  
2912.000000	27.553915  
2911.000000	27.688932  
2910.000000	27.975869  
2909.000000	28.720450  
2908.000000	29.911804  
2907.000000	31.183886  
2906.000000	32.170319  
2905.000000	32.806015  
2904.000000	33.280277  
2903.000000	33.768630  
2902.000000	34.289455  
2901.000000	34.799957  
2900.000000	35.347247  
2899.000000	36.028909  
2898.000000	36.846351  
2897.000000	37.708663  
2896.000000	38.503551  
2895.000000	39.136695  
2894.000000	39.518928  
2893.000000	39.625453  
2892.000000	39.517807  
2891.000000	39.287018  
2890.000000	38.956904  
2889.000000	38.486433  
2888.000000	37.850451  
2887.000000	37.131786  
2886.000000	36.474728  
2885.000000	35.959815  
2884.000000	35.568857  
2883.000000	35.251402  
2882.000000	34.963035  
2881.000000	34.653377  
2880.000000	34.305739  
2879.000000	33.987712  
2878.000000	33.803820  
2877.000000	33.758306  
2876.000000	33.707809  
2875.000000	33.494186  
2874.000000	33.150553  
2873.000000	32.886314  
2872.000000	32.808685  
2871.000000	32.747220  
2870.000000	32.455062  
2869.000000	31.908249  
2868.000000	31.295228  
2867.000000	30.799007  
2866.000000	30.475687  
2865.000000	30.248641  
2864.000000	29.945182  
2863.000000	29.414439  
2862.000000	28.671669  
2861.000000	27.879023  
2860.000000	27.172160  
2859.000000	26.550674  
2858.000000	25.958418  
2857.000000	25.412750  
2856.000000	24.997639  
2855.000000	24.728846  
2854.000000	24.475097  
2853.000000	24.080967  
2852.000000	23.552417  
2851.000000	23.037409  
2850.000000	22.624516  
2849.000000	22.220444  
2848.000000	21.666741  
2847.000000	20.953154  
2846.000000	20.257043  
2845.000000	19.736123  
2844.000000	19.342875  
2843.000000	18.865847  
2842.000000	18.158578  
2841.000000	17.262029  
2840.000000	16.359686  
2839.000000	15.627765  
2838.000000	15.126776  
2837.000000	14.762139  
2836.000000	14.390277  
2835.000000	13.938617  
2834.000000	13.462209  
2833.000000	13.061618  
2832.000000	12.791204  
2831.000000	12.629151  
2830.000000	12.542104  
2829.000000	12.536311  
2828.000000	12.639164  
2827.000000	12.849807  
2826.000000	13.174676  
2825.000000	13.689208  
2824.000000	14.495658  
2823.000000	15.598487  
2822.000000	16.848206  
2821.000000	18.050742  
2820.000000	19.132113  
2819.000000	20.180773  
2818.000000	21.334815  
2817.000000	22.623848  
2816.000000	23.917531  
2815.000000	25.023674  
2814.000000	25.813770  
2813.000000	26.251482  
2812.000000	26.347804  
2811.000000	26.148414  
2810.000000	25.782513  
2809.000000	25.432252  
2808.000000	25.202560  
2807.000000	25.027871  
2806.000000	24.759697  
2805.000000	24.335646  
2804.000000	23.856115  
2803.000000	23.471570  
2802.000000	23.230791  
2801.000000	23.037815  
2800.000000	22.760677  
2799.000000	22.371006  
2798.000000	21.965122  
2797.000000	21.656584  
2796.000000	21.485424  
2795.000000	21.430730  
2794.000000	21.468162  
2793.000000	21.547484  
2792.000000	21.580696  
2791.000000	21.516323  
2790.000000	21.417045  
2789.000000	21.386408  
2788.000000	21.448731  
2787.000000	21.528959  
2786.000000	21.559238  
2785.000000	21.547794  
2784.000000	21.570754  
2783.000000	21.694993  
2782.000000	21.921372  
2781.000000	22.188878  
2780.000000	22.424983  
2779.000000	22.586703  
2778.000000	22.678589  
2777.000000	22.738051  
2776.000000	22.797298  
2775.000000	22.858572  
2774.000000	22.918772  
2773.000000	23.007822  
2772.000000	23.171114  
2771.000000	23.397588  
2770.000000	23.575139  
2769.000000	23.561668  
2768.000000	23.339200  
2767.000000	23.069167  
2766.000000	22.949385  
2765.000000	23.033332  
2764.000000	23.222637  
2763.000000	23.395156  
2762.000000	23.508143  
2761.000000	23.580980  
2760.000000	23.645067  
2759.000000	23.718976  
2758.000000	23.846101  
2757.000000	24.045205  
2756.000000	24.246215  
2755.000000	24.330449  
2754.000000	24.317550  
2753.000000	24.346947  
2752.000000	24.468493  
2751.000000	24.564242  
2750.000000	24.541783  
2749.000000	24.420499  
2748.000000	24.199247  
2747.000000	23.783731  
2746.000000	23.101186  
2745.000000	22.162985  
2744.000000	21.013736  
2743.000000	19.703626  
2742.000000	18.332028  
2741.000000	17.030978  
2740.000000	15.882635  
2739.000000	14.861774  
2738.000000	13.878607  
2737.000000	12.873077  
2736.000000	11.876344  
2735.000000	10.961031  
2734.000000	10.188961  
2733.000000	9.628820   
2732.000000	9.375524   
2731.000000	9.461092   
2730.000000	9.813618   
2729.000000	10.321617  
2728.000000	10.913205  
2727.000000	11.516427  
2726.000000	12.066221  
2725.000000	12.553095  
2724.000000	13.030862  
2723.000000	13.505244  
2722.000000	13.915133  
2721.000000	14.224100  
2720.000000	14.491868  
2719.000000	14.808773  
2718.000000	15.191149  
2717.000000	15.561294  
2716.000000	15.831494  
2715.000000	16.001820  
2714.000000	16.176176  
2713.000000	16.466879  
2712.000000	16.892004  
2711.000000	17.371630  
2710.000000	17.825627  
2709.000000	18.250203  
2708.000000	18.698334  
2707.000000	19.203305  
2706.000000	19.748735  
2705.000000	20.304036  
2704.000000	20.868134  
2703.000000	21.452236  
2702.000000	22.025561  
2701.000000	22.521734  
2700.000000	22.912669  
2699.000000	23.247814  
2698.000000	23.600387  
2697.000000	24.004006  
2696.000000	24.448227  
2695.000000	24.900579  
2694.000000	25.315952  
2693.000000	25.658321  
2692.000000	25.935220  
2691.000000	26.198363  
2690.000000	26.500034  
2689.000000	26.861691  
2688.000000	27.267384  
2687.000000	27.686715  
2686.000000	28.081703  
2685.000000	28.414630  
2684.000000	28.644943  
2683.000000	28.770399  
2682.000000	28.837728  
2681.000000	28.925037  
2680.000000	29.078364  
2679.000000	29.302668  
2678.000000	29.544782  
2677.000000	29.706311  
2676.000000	29.683446  
2675.000000	29.456138  
2674.000000	29.096603  
2673.000000	28.689575  
2672.000000	28.251433  
2671.000000	27.752327  
2670.000000	27.186274  
2669.000000	26.595759  
2668.000000	26.026821  
2667.000000	25.487875  
2666.000000	24.970674  
2665.000000	24.505972  
2664.000000	24.161195  
2663.000000	23.974204  
2662.000000	23.899531  
2661.000000	23.847723  
2660.000000	23.778223  
2659.000000	23.744320  
2658.000000	23.819351  
2657.000000	24.018502  
2656.000000	24.270319  
2655.000000	24.493098  
2654.000000	24.641227  
2653.000000	24.735760  
2652.000000	24.830007  
2651.000000	25.012612  
2650.000000	25.368833  
2649.000000	25.929808  
2648.000000	26.589822  
2647.000000	27.182841  
2646.000000	27.644848  
2645.000000	28.086137  
2644.000000	28.646707  
2643.000000	29.352664  
2642.000000	30.128216  
2641.000000	30.897212  
2640.000000	31.629085  
2639.000000	32.336091  
2638.000000	33.050179  
2637.000000	33.789229  
2636.000000	34.534072  
2635.000000	35.242748  
2634.000000	35.882663  
2633.000000	36.452364  
2632.000000	36.965584  
2631.000000	37.427878  
2630.000000	37.831163  
2629.000000	38.199639  
2628.000000	38.598179  
2627.000000	39.079141  
2626.000000	39.616656  
2625.000000	40.152764  
2624.000000	40.649247  
2623.000000	41.105628  
2622.000000	41.508436  
2621.000000	41.836476  
2620.000000	42.070627  
2619.000000	42.215108  
2618.000000	42.285537  
2617.000000	42.315769  
2616.000000	42.338395  
2615.000000	42.373609  
2614.000000	42.412924  
2613.000000	42.428731  
2612.000000	42.383742  
2611.000000	42.249536  
2610.000000	42.026019  
2609.000000	41.748833  
2608.000000	41.470623  
2607.000000	41.225361  
2606.000000	41.012978  
2605.000000	40.802121  
2604.000000	40.552997  
2603.000000	40.236353  
2602.000000	39.859986  
2601.000000	39.461231  
2600.000000	39.075970  
2599.000000	38.696646  
2598.000000	38.284611  
2597.000000	37.805819  
2596.000000	37.282514  
2595.000000	36.769795  
2594.000000	36.308741  
2593.000000	35.881710  
2592.000000	35.448193  
2591.000000	34.981703  
2590.000000	34.491515  
2589.000000	34.002780  
2588.000000	33.541393  
2587.000000	33.108735  
2586.000000	32.667684  
2585.000000	32.147479  
2584.000000	31.484031  
2583.000000	30.669403  
2582.000000	29.762029  
2581.000000	28.827404  
2580.000000	27.877354  
2579.000000	26.898789  
2578.000000	25.924730  
2577.000000	25.025105  
2576.000000	24.230170  
2575.000000	23.511528  
2574.000000	22.813796  
2573.000000	22.059297  
2572.000000	21.169781  
2571.000000	20.141029  
2570.000000	19.073796  
2569.000000	18.061614  
2568.000000	17.107868  
2567.000000	16.197466  
2566.000000	15.381026  
2565.000000	14.684438  
2564.000000	14.065623  
2563.000000	13.497161  
2562.000000	12.987422  
2561.000000	12.485885  
2560.000000	11.958265  
2559.000000	11.521577  
2558.000000	11.317253  
2557.000000	11.230278  
2556.000000	10.957908  
2555.000000	10.409450  
2554.000000	9.889459   
2553.000000	9.767007   
2552.000000	9.976267   
2551.000000	10.030341  
2550.000000	9.658503   
2549.000000	9.235429   
2548.000000	9.290432   
2547.000000	9.803318   
2546.000000	10.314822  
2545.000000	10.577082  
2544.000000	10.693120  
2543.000000	10.797786  
2542.000000	10.924530  
2541.000000	11.114645  
2540.000000	11.370873  
2539.000000	11.595416  
2538.000000	11.687827  
2537.000000	11.675119  
2536.000000	11.665534  
2535.000000	11.752223  
2534.000000	11.969065  
2533.000000	12.288236  
2532.000000	12.641167  
2531.000000	12.973284  
2530.000000	13.273668  
2529.000000	13.573718  
2528.000000	13.915729  
2527.000000	14.303207  
2526.000000	14.683079  
2525.000000	14.987134  
2524.000000	15.188384  
2523.000000	15.312027  
2522.000000	15.416884  
2521.000000	15.597748  
2520.000000	15.959286  
2519.000000	16.515779  
2518.000000	17.133808  
2517.000000	17.645239  
2516.000000	17.995333  
2515.000000	18.252587  
2514.000000	18.493175  
2513.000000	18.739247  
2512.000000	18.958640  
2511.000000	19.097971  
2510.000000	19.146895  
2509.000000	19.196105  
2508.000000	19.349813  
2507.000000	19.580936  
2506.000000	19.741487  
2505.000000	19.748950  
2504.000000	19.679808  
2503.000000	19.648241  
2502.000000	19.664931  
2501.000000	19.657921  
2500.000000	19.583249  
2499.000000	19.479084  
2498.000000	19.416666  
2497.000000	19.412016  
2496.000000	19.395995  
2495.000000	19.289708  
2494.000000	19.119477  
2493.000000	19.004392  
2492.000000	19.003701  
2491.000000	19.018816  
2490.000000	18.893861  
2489.000000	18.601131  
2488.000000	18.274021  
2487.000000	18.070983  
2486.000000	18.020129  
2485.000000	18.025064  
2484.000000	17.976427  
2483.000000	17.851185  
2482.000000	17.693209  
2481.000000	17.538833  
2480.000000	17.391467  
2479.000000	17.271375  
2478.000000	17.253851  
2477.000000	17.423009  
2476.000000	17.793965  
2475.000000	18.297243  
2474.000000	18.842411  
2473.000000	19.372606  
2472.000000	19.854092  
2471.000000	20.234012  
2470.000000	20.441365  
2469.000000	20.446681  
2468.000000	20.295786  
2467.000000	20.067787  
2466.000000	19.792795  
2465.000000	19.437193  
2464.000000	18.952608  
2463.000000	18.332123  
2462.000000	17.613673  
2461.000000	16.861748  
2460.000000	16.119337  
2459.000000	15.374803  
2458.000000	14.573764  
2457.000000	13.695740  
2456.000000	12.797093  
2455.000000	11.985445  
2454.000000	11.327075  
2453.000000	10.795783  
2452.000000	10.308551  
2451.000000	9.814691   
2450.000000	9.333515   
2449.000000	8.919620   
2448.000000	8.619809   
2447.000000	8.466219   
2446.000000	8.470773   
2445.000000	8.600831   
2444.000000	8.766484   
2443.000000	8.860039   
2442.000000	8.829808   
2441.000000	8.715486   
2440.000000	8.581614   
2439.000000	8.445787   
2438.000000	8.280873   
2437.000000	8.086895   
2436.000000	7.903409   
2435.000000	7.778143   
2434.000000	7.740235   
2433.000000	7.787942   
2432.000000	7.848644   
2431.000000	7.802724   
2430.000000	7.581424   
2429.000000	7.234072   
2428.000000	6.876802   
2427.000000	6.602954   
2426.000000	6.450033   
2425.000000	6.404447   
2424.000000	6.410193   
2423.000000	6.410837   
2422.000000	6.403136   
2421.000000	6.428956   
2420.000000	6.506729   
2419.000000	6.596565   
2418.000000	6.641030   
2417.000000	6.616973   
2416.000000	6.551885   
2415.000000	6.513786   
2414.000000	6.572556   
2413.000000	6.730723   
2412.000000	6.910133   
2411.000000	7.023906   
2410.000000	7.053875   
2409.000000	7.029414   
2408.000000	6.967210   
2407.000000	6.864500   
2406.000000	6.748247   
2405.000000	6.692481   
2404.000000	6.761360   
2403.000000	6.934785   
2402.000000	7.129454   
2401.000000	7.300734   
2400.000000	7.469272   
2399.000000	7.631206   
2398.000000	7.723546   
2397.000000	7.722163   
2396.000000	7.697391   
2395.000000	7.727789   
2394.000000	7.818770   
2393.000000	7.935214   
2392.000000	8.048748   
2391.000000	8.145141   
2390.000000	8.234858   
2389.000000	8.355903   
2388.000000	8.516645   
2387.000000	8.642292   
2386.000000	8.642482   
2385.000000	8.519339   
2384.000000	8.363199   
2383.000000	8.243870   
2382.000000	8.157467   
2381.000000	8.060240   
2380.000000	7.940459   
2379.000000	7.860374   
2378.000000	7.918810   
2377.000000	8.143591   
2376.000000	8.439230   
2375.000000	8.611440   
2374.000000	8.508110   
2373.000000	8.162784   
2372.000000	7.804846   
2371.000000	7.618618   
2370.000000	7.501554   
2369.000000	7.218050   
2368.000000	6.800007   
2367.000000	6.590223   
2366.000000	6.804990   
2365.000000	7.188582   
2364.000000	7.203459   
2363.000000	6.541419   
2362.000000	5.409908   
2361.000000	4.340314   
2360.000000	3.756761   
2359.000000	3.741240   
2358.000000	4.109883   
2357.000000	4.591178   
2356.000000	4.974007   
2355.000000	5.214881   
2354.000000	5.449676   
2353.000000	5.827379   
2352.000000	6.329631   
2351.000000	6.761217   
2350.000000	6.956005   
2349.000000	6.943106   
2348.000000	6.892967   
2347.000000	6.905770   
2346.000000	6.935381   
2345.000000	6.929874   
2344.000000	6.972599   
2343.000000	7.183432   
2342.000000	7.553720   
2341.000000	7.927584   
2340.000000	8.190107   
2339.000000	8.406901   
2338.000000	8.679819   
2337.000000	8.935546   
2336.000000	9.010457   
2335.000000	8.915209   
2334.000000	8.844566   
2333.000000	8.923745   
2332.000000	9.117341   
2331.000000	9.390068   
2330.000000	9.788703   
2329.000000	10.325551  
2328.000000	10.887646  
2327.000000	11.329627  
2326.000000	11.649727  
2325.000000	12.009239  
2324.000000	12.553215  
2323.000000	13.232827  
2322.000000	13.861417  
2321.000000	14.302539  
2320.000000	14.562058  
2319.000000	14.716625  
2318.000000	14.832162  
2317.000000	14.945054  
2316.000000	15.075278  
2315.000000	15.220403  
2314.000000	15.339779  
2313.000000	15.375041  
2312.000000	15.318536  
2311.000000	15.238904  
2310.000000	15.216112  
2309.000000	15.238595  
2308.000000	15.199303  
2307.000000	15.017271  
2306.000000	14.743494  
2305.000000	14.521431  
2304.000000	14.436435  
2303.000000	14.440989  
2302.000000	14.425826  
2301.000000	14.329433  
2300.000000	14.172077  
2299.000000	14.021325  
2298.000000	13.931632  
2297.000000	13.912081  
2296.000000	13.944554  
2295.000000	14.016866  
2294.000000	14.114546  
2293.000000	14.184212  
2292.000000	14.155578  
2291.000000	14.021396  
2290.000000	13.864326  
2289.000000	13.776135  
2288.000000	13.771796  
2287.000000	13.788843  
2286.000000	13.778901  
2285.000000	13.768386  
2284.000000	13.816022  
2283.000000	13.924646  
2282.000000	14.031672  
2281.000000	14.080524  
2280.000000	14.058065  
2279.000000	13.977479  
2278.000000	13.887357  
2277.000000	13.886308  
2276.000000	14.050865  
2275.000000	14.349317  
2274.000000	14.670753  
2273.000000	14.927911  
2272.000000	15.091729  
2271.000000	15.161752  
2270.000000	15.164637  
2269.000000	15.162682  
2268.000000	15.226697  
2267.000000	15.382862  
2266.000000	15.607142  
2265.000000	15.854167  
2264.000000	16.102242  
2263.000000	16.350388  
2262.000000	16.590619  
2261.000000	16.776084  
2260.000000	16.842603  
2259.000000	16.763091  
2258.000000	16.578507  
2257.000000	16.366410  
2256.000000	16.180014  
2255.000000	16.007018  
2254.000000	15.795469  
2253.000000	15.508747  
2252.000000	15.158867  
2251.000000	14.779114  
2250.000000	14.394497  
2249.000000	14.032554  
2248.000000	13.754916  
2247.000000	13.631057  
2246.000000	13.681483  
2245.000000	13.855552  
2244.000000	14.087319  
2243.000000	14.362645  
2242.000000	14.747595  
2241.000000	15.339994  
2240.000000	16.190981  
2239.000000	17.243933  
2238.000000	18.363237  
2237.000000	19.416880  
2236.000000	20.340704  
2235.000000	21.129250  
2234.000000	21.797752  
2233.000000	22.357916  
2232.000000	22.827506  
2231.000000	23.231649  
2230.000000	23.596191  
2229.000000	23.928737  
2228.000000	24.212455  
2227.000000	24.415421  
2226.000000	24.518752  
2225.000000	24.528145  
2224.000000	24.466490  
2223.000000	24.353575  
2222.000000	24.220657  
2221.000000	24.108242  
2220.000000	24.049639  
2219.000000	24.022817  
2218.000000	23.967218  
2217.000000	23.823356  
2216.000000	23.583149  
2215.000000	23.278117  
2214.000000	22.946691  
2213.000000	22.597932  
2212.000000	22.222208  
2211.000000	21.825170  
2210.000000	21.459078  
2209.000000	21.185922  
2208.000000	21.016931  
2207.000000	20.882415  
2206.000000	20.686316  
2205.000000	20.386338  
2204.000000	20.020461  
2203.000000	19.682931  
2202.000000	19.466328  
2201.000000	19.391489  
2200.000000	19.388818  
2199.000000	19.359016  
2198.000000	19.255733  
2197.000000	19.064497  
2196.000000	18.753361  
2195.000000	18.348026  
2194.000000	18.009686  
2193.000000	17.920017  
2192.000000	18.085789  
2191.000000	18.316912  
2190.000000	18.372249  
2189.000000	18.099141  
2188.000000	17.523002  
2187.000000	16.888165  
2186.000000	16.553592  
2185.000000	16.727566  
2184.000000	17.249560  
2183.000000	17.657232  
2182.000000	17.562747  
2181.000000	17.010617  
2180.000000	16.390752  
2179.000000	15.992712  
2178.000000	15.773558  
2177.000000	15.568614  
2176.000000	15.341806  
2175.000000	15.145349  
2174.000000	15.007257  
2173.000000	14.936470  
2172.000000	14.920639  
2171.000000	14.887261  
2170.000000	14.755868  
2169.000000	14.543700  
2168.000000	14.342188  
2167.000000	14.197778  
2166.000000	14.093732  
2165.000000	14.008951  
2164.000000	13.924503  
2163.000000	13.810777  
2162.000000	13.651156  
2161.000000	13.472843  
2160.000000	13.308382  
2159.000000	13.141465  
2158.000000	12.919092  
2157.000000	12.625908  
2156.000000	12.336015  
2155.000000	12.155747  
2154.000000	12.113070  
2153.000000	12.125992  
2152.000000	12.097477  
2151.000000	11.995315  
2150.000000	11.834573  
2149.000000	11.643695  
2148.000000	11.470484  
2147.000000	11.356806  
2146.000000	11.280369  
2145.000000	11.157941  
2144.000000	10.930466  
2143.000000	10.613608  
2142.000000	10.271787  
2141.000000	9.961295   
2140.000000	9.708547   
2139.000000	9.497928   
2138.000000	9.305453   
2137.000000	9.130668   
2136.000000	9.013128   
2135.000000	8.972835   
2134.000000	8.992004   
2133.000000	9.025549   
2132.000000	9.079170   
2131.000000	9.201955   
2130.000000	9.454202   
2129.000000	9.848952   
2128.000000	10.368609  
2127.000000	10.998153  
2126.000000	11.751675  
2125.000000	12.644290  
2124.000000	13.648176  
2123.000000	14.692926  
2122.000000	15.741682  
2121.000000	16.850662  
2120.000000	18.086886  
2119.000000	19.393157  
2118.000000	20.596122  
2117.000000	21.552038  
2116.000000	22.231316  
2115.000000	22.664117  
2114.000000	22.877454  
2113.000000	22.888422  
2112.000000	22.717142  
2111.000000	22.374844  
2110.000000	21.889281  
2109.000000	21.319293  
2108.000000	20.766210  
2107.000000	20.301651  
2106.000000	19.928860  
2105.000000	19.570469  
2104.000000	19.172382  
2103.000000	18.742203  
2102.000000	18.334460  
2101.000000	17.961192  
2100.000000	17.601442  
2099.000000	17.235422  
2098.000000	16.876626  
2097.000000	16.542506  
2096.000000	16.229271  
2095.000000	15.910387  
2094.000000	15.567994  
2093.000000	15.216827  
2092.000000	14.889192  
2091.000000	14.591360  
2090.000000	14.290618  
2089.000000	13.970208  
2088.000000	13.671231  
2087.000000	13.442134  
2086.000000	13.262271  
2085.000000	13.054704  
2084.000000	12.778973  
2083.000000	12.463355  
2082.000000	12.159609  
2081.000000	11.886048  
2080.000000	11.631155  
2079.000000	11.388587  
2078.000000	11.169338  
2077.000000	10.970735  
2076.000000	10.768818  
2075.000000	10.543966  
2074.000000	10.310912  
2073.000000	10.099720  
2072.000000	9.937238   
2071.000000	9.854292   
2070.000000	9.883999   
2069.000000	10.008096  
2068.000000	10.116934  
2067.000000	10.056185  
2066.000000	9.765720   
2065.000000	9.367370   
2064.000000	9.080314   
2063.000000	9.024977   
2062.000000	9.126377   
2061.000000	9.211611   
2060.000000	9.181165   
2059.000000	9.079885   
2058.000000	9.030270   
2057.000000	9.116911   
2056.000000	9.322500   
2055.000000	9.566020   
2054.000000	9.776806   
2053.000000	9.936642   
2052.000000	10.055232  
2051.000000	10.149955  
2050.000000	10.248231  
2049.000000	10.395312  
2048.000000	10.606575  
2047.000000	10.844540  
2046.000000	11.039996  
2045.000000	11.155009  
2044.000000	11.205935  
2043.000000	11.256170  
2042.000000	11.385059  
2041.000000	11.638188  
2040.000000	11.989307  
2039.000000	12.371063  
2038.000000	12.740039  
2037.000000	13.096809  
2036.000000	13.447237  
2035.000000	13.769674  
2034.000000	14.041614  
2033.000000	14.282751  
2032.000000	14.547753  
2031.000000	14.860057  
2030.000000	15.170955  
2029.000000	15.409064  
2028.000000	15.575289  
2027.000000	15.758466  
2026.000000	16.050720  
2025.000000	16.452383  
2024.000000	16.880822  
2023.000000	17.260861  
2022.000000	17.601060  
2021.000000	17.981052  
2020.000000	18.452358  
2019.000000	18.969345  
2018.000000	19.438934  
2017.000000	19.836759  
2016.000000	20.221805  
2015.000000	20.634913  
2014.000000	21.045851  
2013.000000	21.426057  
2012.000000	21.804308  
2011.000000	22.215747  
2010.000000	22.639894  
2009.000000	23.018479  
2008.000000	23.304224  
2007.000000	23.485994  
2006.000000	23.599672  
2005.000000	23.715543  
2004.000000	23.871397  
2003.000000	24.035549  
2002.000000	24.166584  
2001.000000	24.289011  
2000.000000	24.460935  
1999.000000	24.708437  
1998.000000	25.022602  
1997.000000	25.406908  
1996.000000	25.858569  
1995.000000	26.357364  
1994.000000	26.888251  
1993.000000	27.480769  
1992.000000	28.170990  
1991.000000	28.947758  
1990.000000	29.743599  
1989.000000	30.504322  
1988.000000	31.247115  
1987.000000	32.033896  
1986.000000	32.887840  
1985.000000	33.783936  
1984.000000	34.721183  
1983.000000	35.738110  
1982.000000	36.834549  
1981.000000	37.924695  
1980.000000	38.893365  
1979.000000	39.674401  
1978.000000	40.262627  
1977.000000	40.694642  
1976.000000	41.009736  
1975.000000	41.223144  
1974.000000	41.308808  
1973.000000	41.258120  
1972.000000	41.087937  
1971.000000	40.810275  
1970.000000	40.399718  
1969.000000	39.885425  
1968.000000	39.364695  
1967.000000	38.909053  
1966.000000	38.474750  
1965.000000	38.003802  
1964.000000	37.494635  
1963.000000	36.955738  
1962.000000	36.344146  
1961.000000	35.643792  
1960.000000	34.910917  
1959.000000	34.210777  
1958.000000	33.564710  
1957.000000	32.998013  
1956.000000	32.586050  
1955.000000	32.407331  
1954.000000	32.462453  
1953.000000	32.646560  
1952.000000	32.824015  
1951.000000	32.916975  
1950.000000	32.933855  
1949.000000	32.923793  
1948.000000	32.926440  
1947.000000	32.983613  
1946.000000	33.136296  
1945.000000	33.416295  
1944.000000	33.812475  
1943.000000	34.277296  
1942.000000	34.711337  
1941.000000	34.968280  
1940.000000	34.852409  
1939.000000	34.184741  
1938.000000	32.906413  
1937.000000	31.224203  
1936.000000	29.636073  
1935.000000	28.698515  
1934.000000	28.671479  
1933.000000	29.371738  
1932.000000	30.383467  
1931.000000	31.342554  
1930.000000	32.056331  
1929.000000	32.467055  
1928.000000	32.606911  
1927.000000	32.558202  
1926.000000	32.414436  
1925.000000	32.253408  
1924.000000	32.128596  
1923.000000	32.048130  
1922.000000	31.979346  
1921.000000	31.876587  
1920.000000	31.735944  
1919.000000	31.591129  
1918.000000	31.497526  
1917.000000	31.510639  
1916.000000	31.650829  
1915.000000	31.875181  
1914.000000	32.085537  
1913.000000	32.221627  
1912.000000	32.314991  
1911.000000	32.435870  
1910.000000	32.617664  
1909.000000	32.849478  
1908.000000	33.116364  
1907.000000	33.399438  
1906.000000	33.685636  
1905.000000	33.988928  
1904.000000	34.326291  
1903.000000	34.664463  
1902.000000	34.946775  
1901.000000	35.171985  
1900.000000	35.390496  
1899.000000	35.622453  
1898.000000	35.845112  
1897.000000	36.055850  
1896.000000	36.291456  
1895.000000	36.564040  
1894.000000	36.816954  
1893.000000	36.972713  
1892.000000	37.025094  
1891.000000	37.052273  
1890.000000	37.129354  
1889.000000	37.248802  
1888.000000	37.376570  
1887.000000	37.523770  
1886.000000	37.722635  
1885.000000	37.945675  
1884.000000	38.126683  
1883.000000	38.225126  
1882.000000	38.230872  
1881.000000	38.162350  
1880.000000	38.086938  
1879.000000	38.083195  
1878.000000	38.143515  
1877.000000	38.184595  
1876.000000	38.155770  
1875.000000	38.070631  
1874.000000	37.925457  
1873.000000	37.703776  
1872.000000	37.476921  
1871.000000	37.418913  
1870.000000	37.662005  
1869.000000	38.180756  
1868.000000	38.819718  
1867.000000	39.436411  
1866.000000	39.989781  
1865.000000	40.564179  
1864.000000	41.255593  
1863.000000	42.082500  
1862.000000	42.939424  
1861.000000	43.746709  
1860.000000	44.492912  
1859.000000	45.191717  
1858.000000	45.780539  
1857.000000	46.172666  
1856.000000	46.301102  
1855.000000	46.044182  
1854.000000	45.253467  
1853.000000	43.899631  
1852.000000	42.106509  
1851.000000	39.926218  
1850.000000	37.303471  
1849.000000	34.299492  
1848.000000	31.193089  
1847.000000	28.305649  
1846.000000	25.934076  
1845.000000	24.429202  
1844.000000	24.048137  
1843.000000	24.676418  
1842.000000	25.906610  
1841.000000	27.412819  
1840.000000	29.040455  
1839.000000	30.584144  
1838.000000	31.710147  
1837.000000	32.126808  
1836.000000	31.587982  
1835.000000	29.926538  
1834.000000	27.176237  
1833.000000	23.680019  
1832.000000	19.777846  
1831.000000	15.705752  
1830.000000	11.789727  
1829.000000	8.551764   
1828.000000	6.281924   
1827.000000	4.771518   
1826.000000	3.656172   
1825.000000	2.825903   
1824.000000	2.385401   
1823.000000	2.341723   
1822.000000	2.544522   
1821.000000	2.803397   
1820.000000	3.010129   
1819.000000	3.165102   
1818.000000	3.341627   
1817.000000	3.583669   
1816.000000	3.867936   
1815.000000	4.158902   
1814.000000	4.476404   
1813.000000	4.838323   
1812.000000	5.203032   
1811.000000	5.507063   
1810.000000	5.758070   
1809.000000	6.013178   
1808.000000	6.302404   
1807.000000	6.610965   
1806.000000	6.929087   
1805.000000	7.254433   
1804.000000	7.566499   
1803.000000	7.844567   
1802.000000	8.097338   
1801.000000	8.347582   
1800.000000	8.598041   
1799.000000	8.830356   
1798.000000	9.031105   
1797.000000	9.211707   
1796.000000	9.401297   
1795.000000	9.623456   
1794.000000	9.868049   
1793.000000	10.096049  
1792.000000	10.285258  
1791.000000	10.463476  
1790.000000	10.670185  
1789.000000	10.895705  
1788.000000	11.098694  
1787.000000	11.272358  
1786.000000	11.443042  
1785.000000	11.612653  
1784.000000	11.757445  
1783.000000	11.876821  
1782.000000	12.000250  
1781.000000	12.148547  
1780.000000	12.322258  
1779.000000	12.514209  
1778.000000	12.710142  
1777.000000	12.879991  
1776.000000	12.995672  
1775.000000	13.061356  
1774.000000	13.127923  
1773.000000	13.248682  
1772.000000	13.420581  
1771.000000	13.585734  
1770.000000	13.707685  
1769.000000	13.806939  
1768.000000	13.920211  
1767.000000	14.046573  
1766.000000	14.164376  
1765.000000	14.267301  
1764.000000	14.366126  
1763.000000	14.457082  
1762.000000	14.508414  
1761.000000	14.499020  
1760.000000	14.456653  
1759.000000	14.426279  
1758.000000	14.401316  
1757.000000	14.326858  
1756.000000	14.159727  
1755.000000	13.891983  
1754.000000	13.545584  
1753.000000	13.168692  
1752.000000	12.838840  
1751.000000	12.558317  
1750.000000	12.247729  
1749.000000	11.806869  
1748.000000	11.278629  
1747.000000	10.724043  
1746.000000	10.191249  
1745.000000	9.685707   
1744.000000	9.252452   
1743.000000	8.883714   
1742.000000	8.670210   
1741.000000	8.878874   
1740.000000	9.790778   
1739.000000	11.334562  
1738.000000	13.240146  
1737.000000	15.515708  
1736.000000	18.598365  
1735.000000	22.829079  
1734.000000	27.907419  
1733.000000	33.015918  
1732.000000	37.617635  
1731.000000	41.937899  
1730.000000	46.486806  
1729.000000	51.285481  
1728.000000	55.911827  
1727.000000	60.091948  
1726.000000	63.855576  
1725.000000	67.125844  
1724.000000	69.569873  
1723.000000	70.854425  
1722.000000	70.956707  
1721.000000	70.062375  
1720.000000	68.370938  
1719.000000	66.004133  
1718.000000	63.289165  
1717.000000	60.717415  
1716.000000	58.644318  
1715.000000	56.993126  
1714.000000	55.584144  
1713.000000	54.327988  
1712.000000	53.186035  
1711.000000	52.037000  
1710.000000	50.813198  
1709.000000	49.545884  
1708.000000	48.298239  
1707.000000	47.032928  
1706.000000	45.682835  
1705.000000	44.363451  
1704.000000	43.354678  
1703.000000	42.569446  
1702.000000	41.393446  
1701.000000	39.464282  
1700.000000	37.367749  
1699.000000	35.916852  
1698.000000	35.114073  
1697.000000	34.367752  
1696.000000	33.482289  
1695.000000	32.784366  
1694.000000	32.498478  
1693.000000	32.422924  
1692.000000	32.254815  
1691.000000	31.928467  
1690.000000	31.637072  
1689.000000	31.545424  
1688.000000	31.661748  
1687.000000	31.931018  
1686.000000	32.343745  
1685.000000	32.820439  
1684.000000	33.172059  
1683.000000	33.276247  
1682.000000	33.253359  
1681.000000	33.321762  
1680.000000	33.539557  
1679.000000	33.767127  
1678.000000	33.944654  
1677.000000	34.292554  
1676.000000	35.022115  
1675.000000	35.959625  
1674.000000	36.718678  
1673.000000	37.240672  
1672.000000	37.870025  
1671.000000	38.947486  
1670.000000	40.491819  
1669.000000	42.233896  
1668.000000	43.771123  
1667.000000	44.875097  
1666.000000	45.691871  
1665.000000	46.675944  
1664.000000	48.158812  
1663.000000	50.042343  
1662.000000	51.932501  
1661.000000	53.588819  
1660.000000	55.085682  
1659.000000	56.562185  
1658.000000	57.899713  
1657.000000	58.868265  
1656.000000	59.619879  
1655.000000	60.882878  
1654.000000	63.364362  
1653.000000	66.801238  
1652.000000	69.849658  
1651.000000	71.342825  
1650.000000	71.593713  
1649.000000	72.043681  
1648.000000	73.675370  
1647.000000	76.167845  
1646.000000	78.531074  
1645.000000	80.169057  
1644.000000	81.201195  
1643.000000	82.082653  
1642.000000	83.056020  
1641.000000	84.018158  
1640.000000	84.768009  
1639.000000	85.327887  
1638.000000	85.915446  
1637.000000	86.804175  
1636.000000	88.002729  
1635.000000	89.211821  
1634.000000	90.005254  
1633.000000	90.333247  
1632.000000	90.501928  
1631.000000	90.759372  
1630.000000	91.034770  
1629.000000	91.226935  
1628.000000	91.294240  
1627.000000	91.062164  
1626.000000	90.194487  
1625.000000	88.496208  
1624.000000	86.002326  
1623.000000	82.820940  
1622.000000	79.184246  
1621.000000	75.495791  
1620.000000	71.969985  
1619.000000	68.327593  
1618.000000	64.283323  
1617.000000	60.124611  
1616.000000	56.531977  
1615.000000	53.823065  
1614.000000	51.688146  
1613.000000	49.601364  
1612.000000	47.359848  
1611.000000	45.105338  
1610.000000	42.948293  
1609.000000	40.805697  
1608.000000	38.668584  
1607.000000	36.768412  
1606.000000	35.209083  
1605.000000	33.790421  
1604.000000	32.299947  
1603.000000	30.817723  
1602.000000	29.500293  
1601.000000	28.388357  
1600.000000	27.474093  
1599.000000	26.745796  
1598.000000	26.083159  
1597.000000	25.372219  
1596.000000	24.705171  
1595.000000	24.263572  
1594.000000	24.042654  
1593.000000	23.878765  
1592.000000	23.707151  
1591.000000	23.565602  
1590.000000	23.418569  
1589.000000	23.160076  
1588.000000	22.758483  
1587.000000	22.244453  
1586.000000	21.631956  
1585.000000	20.938181  
1584.000000	20.216012  
1583.000000	19.480323  
1582.000000	18.676686  
1581.000000	17.784881  
1580.000000	16.871857  
1579.000000	15.996241  
1578.000000	15.091729  
1577.000000	14.010119  
1576.000000	12.715888  
1575.000000	11.406922  
1574.000000	10.318970  
1573.000000	9.450554   
1572.000000	8.593392   
1571.000000	7.623291   
1570.000000	6.608796   
1569.000000	5.663561   
1568.000000	4.791712   
1567.000000	4.010367   
1566.000000	3.387260   
1565.000000	2.973890   
1564.000000	2.677440   
1563.000000	2.469587   
1562.000000	2.523779   
1561.000000	3.294515   
1560.000000	5.287146   
1559.000000	8.662080   
1558.000000	12.764477  
1557.000000	16.717720  
1556.000000	20.625686  
1555.000000	25.542449  
1554.000000	31.764364  
1553.000000	38.245105  
1552.000000	44.180488  
1551.000000	49.945330  
1550.000000	55.808424  
1549.000000	61.098051  
1548.000000	65.320181  
1547.000000	68.917250  
1546.000000	72.361898  
1545.000000	75.476956  
1544.000000	77.977538  
1543.000000	79.884386  
1542.000000	81.168484  
1541.000000	81.703209  
1540.000000	81.607985  
1539.000000	81.265330  
1538.000000	80.863976  
1537.000000	80.328869  
1536.000000	79.464101  
1535.000000	78.194594  
1534.000000	76.529264  
1533.000000	74.689030  
1532.000000	72.933435  
1531.000000	71.376252  
1530.000000	69.805741  
1529.000000	68.023967  
1528.000000	66.028738  
1527.000000	63.967609  
1526.000000	61.910414  
1525.000000	59.946584  
1524.000000	58.123660  
1523.000000	56.302714  
1522.000000	54.284381  
1521.000000	52.231335  
1520.000000	50.480103  
1519.000000	48.993992  
1518.000000	47.349452  
1517.000000	45.335507  
1516.000000	43.169403  
1515.000000	41.095089  
1514.000000	39.010429  
1513.000000	36.675667  
1512.000000	34.123897  
1511.000000	31.622362  
1510.000000	29.006361  
1509.000000	25.675725  
1508.000000	21.778893  
1507.000000	18.884587  
1506.000000	18.583869  
1505.000000	20.847892  
1504.000000	24.505805  
1503.000000	28.727436  
1502.000000	33.261418  
1501.000000	37.801599  
1500.000000	41.995215  
1499.000000	45.745587  
1498.000000	48.959827  
1497.000000	51.339530  
1496.000000	52.655076  
1495.000000	53.035712  
1494.000000	52.764654  
1493.000000	52.046060  
1492.000000	50.989389  
1491.000000	49.695634  
1490.000000	48.256897  
1489.000000	46.793079  
1488.000000	45.416784  
1487.000000	44.187951  
1486.000000	43.044209  
1485.000000	41.896009  
1484.000000	40.706419  
1483.000000	39.478039  
1482.000000	38.162994  
1481.000000	36.760807  
1480.000000	35.377979  
1479.000000	34.117770  
1478.000000	32.946801  
1477.000000	31.785035  
1476.000000	30.646038  
1475.000000	29.540586  
1474.000000	28.411388  
1473.000000	27.215933  
1472.000000	26.057529  
1471.000000	25.039362  
1470.000000	24.156594  
1469.000000	23.375725  
1468.000000	22.733998  
1467.000000	22.249579  
1466.000000	21.894741  
1465.000000	21.665406  
1464.000000	21.566343  
1463.000000	21.539092  
1462.000000	21.616220  
1461.000000	22.047209  
1460.000000	22.965693  
1459.000000	23.984861  
1458.000000	24.453330  
1457.000000	24.169635  
1456.000000	23.567771  
1455.000000	23.236441  
1454.000000	23.410129  
1453.000000	23.957586  
1452.000000	24.614882  
1451.000000	25.229549  
1450.000000	25.808238  
1449.000000	26.439905  
1448.000000	27.152180  
1447.000000	27.910542  
1446.000000	28.691101  
1445.000000	29.529786  
1444.000000	30.461668  
1443.000000	31.483101  
1442.000000	32.581543  
1441.000000	33.720135  
1440.000000	34.802770  
1439.000000	35.762715  
1438.000000	36.706495  
1437.000000	37.820792  
1436.000000	39.100790  
1435.000000	40.342164  
1434.000000	41.405296  
1433.000000	42.294526  
1432.000000	42.992830  
1431.000000	43.429398  
1430.000000	43.618655  
1429.000000	43.666505  
1428.000000	43.630671  
1427.000000	43.522191  
1426.000000	43.385648  
1425.000000	43.276309  
1424.000000	43.163681  
1423.000000	43.000197  
1422.000000	42.809391  
1421.000000	42.677211  
1420.000000	42.640662  
1419.000000	42.678713  
1418.000000	42.740917  
1417.000000	42.798018  
1416.000000	42.849659  
1415.000000	42.933917  
1414.000000	43.078231  
1413.000000	43.250560  
1412.000000	43.386602  
1411.000000	43.468999  
1410.000000	43.528223  
1409.000000	43.571186  
1408.000000	43.572640  
1407.000000	43.541073  
1406.000000	43.536138  
1405.000000	43.604016  
1404.000000	43.740320  
1403.000000	43.917155  
1402.000000	44.115185  
1401.000000	44.307208  
1400.000000	44.442486  
1399.000000	44.465780  
1398.000000	44.363379  
1397.000000	44.189071  
1396.000000	44.018292  
1395.000000	43.896293  
1394.000000	43.806767  
1393.000000	43.716812  
1392.000000	43.586039  
1391.000000	43.398904  
1390.000000	43.146204  
1389.000000	42.844867  
1388.000000	42.505025  
1387.000000	42.165207  
1386.000000	41.894030  
1385.000000	41.802787  
1384.000000	41.993808  
1383.000000	42.523097  
1382.000000	43.376803  
1381.000000	44.499015  
1380.000000	45.822358  
1379.000000	47.291231  
1378.000000	48.879957  
1377.000000	50.598788  
1376.000000	52.482032  
1375.000000	54.525375  
1374.000000	56.641387  
1373.000000	58.664584  
1372.000000	60.479044  
1371.000000	62.113690  
1370.000000	63.730883  
1369.000000	65.437698  
1368.000000	67.181706  
1367.000000	68.810462  
1366.000000	70.271706  
1365.000000	71.699738  
1364.000000	73.276329  
1363.000000	75.013017  
1362.000000	76.724743  
1361.000000	78.252315  
1360.000000	79.608321  
1359.000000	80.908918  
1358.000000	82.227802  
1357.000000	83.600068  
1356.000000	85.035991  
1355.000000	86.498785  
1354.000000	87.896442  
1353.000000	89.162969  
1352.000000	90.311026  
1351.000000	91.389322  
1350.000000	92.428445  
1349.000000	93.406486  
1348.000000	94.261002  
1347.000000	94.904685  
1346.000000	95.315313  
1345.000000	95.521426  
1344.000000	95.552062  
1343.000000	95.356345  
1342.000000	94.922733  
1341.000000	94.306397  
1340.000000	93.585467  
1339.000000	92.717337  
1338.000000	91.650629  
1337.000000	90.372276  
1336.000000	88.920521  
1335.000000	87.288212  
1334.000000	85.511112  
1333.000000	83.667492  
1332.000000	81.842827  
1331.000000	80.039930  
1330.000000	78.238344  
1329.000000	76.417160  
1328.000000	74.555158  
1327.000000	72.612762  
1326.000000	70.577740  
1325.000000	68.480086  
1324.000000	66.372776  
1323.000000	64.295196  
1322.000000	62.254571  
1321.000000	60.215687  
1320.000000	58.133172  
1319.000000	56.016016  
1318.000000	53.948473  
1317.000000	51.996493  
1316.000000	50.132560  
1315.000000	48.265767  
1314.000000	46.357798  
1313.000000	44.451451  
1312.000000	42.622566  
1311.000000	40.902423  
1310.000000	39.283132  
1309.000000	37.735843  
1308.000000	36.248373  
1307.000000	34.804463  
1306.000000	33.400058  
1305.000000	32.047891  
1304.000000	30.792379  
1303.000000	29.658055  
1302.000000	28.609466  
1301.000000	27.551889  
1300.000000	26.420903  
1299.000000	25.243520  
1298.000000	24.101996  
1297.000000	23.041200  
1296.000000	22.053956  
1295.000000	21.146392  
1294.000000	20.347237  
1293.000000	19.653892  
1292.000000	19.014048  
1291.000000	18.384695  
1290.000000	17.751741  
1289.000000	17.126441  
1288.000000	16.524839  
1287.000000	15.966653  
1286.000000	15.429830  
1285.000000	14.870381  
1284.000000	14.285373  
1283.000000	13.748764  
1282.000000	13.314151  
1281.000000	12.955355  
1280.000000	12.597465  
1279.000000	12.212848  
1278.000000	11.827778  
1277.000000	11.490464  
1276.000000	11.230349  
1275.000000	11.035728  
1274.000000	10.842466  
1273.000000	10.577249  
1272.000000	10.224390  
1271.000000	9.846973   
1270.000000	9.536314   
1269.000000	9.347558   
1268.000000	9.269785   
1267.000000	9.238791   
1266.000000	9.180116   
1265.000000	9.047818   
1264.000000	8.833932   
1263.000000	8.544421   
1262.000000	8.175325   
1261.000000	7.710003   
1260.000000	7.146549   
1259.000000	6.512928   
1258.000000	5.854463   
1257.000000	5.191755   
1256.000000	4.518699   
1255.000000	3.845715   
1254.000000	3.233122   
1253.000000	2.750086   
1252.000000	2.417659   
1251.000000	2.193641   
1250.000000	2.005529   
1249.000000	1.793599   
1248.000000	1.547479   
1247.000000	1.312828   
1246.000000	1.150608   
1245.000000	1.076745   
1244.000000	1.048421   
1243.000000	1.010584   
1242.000000	0.951504   
1241.000000	0.909066   
1240.000000	0.917744   
1239.000000	0.965404   
1238.000000	1.006793   
1237.000000	1.016807   
1236.000000	1.009821   
1235.000000	1.012754   
1234.000000	1.020789   
1233.000000	1.002168   
1232.000000	0.940394   
1231.000000	0.854802   
1230.000000	0.764822   
1229.000000	0.674557   
1228.000000	0.604677   
1227.000000	0.600004   
1226.000000	0.664472   
1225.000000	0.726127   
1224.000000	0.709080   
1223.000000	0.621819   
1222.000000	0.545787   
1221.000000	0.544166   
1220.000000	0.598359   
1219.000000	0.630784   
1218.000000	0.584197   
1217.000000	0.480961   
1216.000000	0.403380   
1215.000000	0.413012   
1214.000000	0.493431   
1213.000000	0.575208   
1212.000000	0.605559   
1211.000000	0.583529   
1210.000000	0.542211   
1209.000000	0.520586   
1208.000000	0.540280   
1207.000000	0.584316   
1206.000000	0.608134   
1205.000000	0.593662   
1204.000000	0.583124   
1203.000000	0.629901   
1202.000000	0.728750   
1201.000000	0.816583   
1200.000000	0.836253   
1199.000000	0.782108   
1198.000000	0.699067   
1197.000000	0.646519   
1196.000000	0.647711   
1195.000000	0.670981   
1194.000000	0.672888   
1193.000000	0.656151   
1192.000000	0.662779   
1191.000000	0.713038   
1190.000000	0.779914   
1189.000000	0.829982   
1188.000000	0.864696   
1187.000000	0.905418   
1186.000000	0.946784   
1185.000000	0.949382   
1184.000000	0.896477   
1183.000000	0.835895   
1182.000000	0.832033   
1181.000000	0.885748   
1180.000000	0.940227   
1179.000000	0.956892   
1178.000000	0.951147   
1177.000000	0.961828   
1176.000000	1.020169   
1175.000000	1.128053   
1174.000000	1.242709   
1173.000000	1.309204   
1172.000000	1.329016   
1171.000000	1.359224   
1170.000000	1.426100   
1169.000000	1.476836   
1168.000000	1.441836   
1167.000000	1.320338   
1166.000000	1.180338   
1165.000000	1.085257   
1164.000000	1.042294   
1163.000000	1.026010   
1162.000000	1.030564   
1161.000000	1.072120   
1160.000000	1.145863   
1159.000000	1.210165   
1158.000000	1.226305   
1157.000000	1.199913   
1156.000000	1.167225   
1155.000000	1.144456   
1154.000000	1.112723   
1153.000000	1.059293   
1152.000000	1.012468   
1151.000000	1.007485   
1150.000000	1.040124   
1149.000000	1.077890   
1148.000000	1.107740   
1147.000000	1.136040   
1146.000000	1.158070   
1145.000000	1.154232   
1144.000000	1.113200   
1143.000000	1.045179   
1142.000000	0.978493   
1141.000000	0.946116   
1140.000000	0.965929   
1139.000000	1.028871   
1138.000000	1.109552   
1137.000000	1.187825   
1136.000000	1.259827   
1135.000000	1.328706   
1134.000000	1.388597   
1133.000000	1.423048   
1132.000000	1.426005   
1131.000000	1.417613   
1130.000000	1.428699   
1129.000000	1.469326   
1128.000000	1.522684   
1127.000000	1.570224   
1126.000000	1.615595   
1125.000000	1.681613   
1124.000000	1.783204   
1123.000000	1.909446   
1122.000000	2.034235   
1121.000000	2.136135   
1120.000000	2.203774   
1119.000000	2.234554   
1118.000000	2.242279   
1117.000000	2.249813   
1116.000000	2.261614   
1115.000000	2.263903   
1114.000000	2.260875   
1113.000000	2.282142   
1112.000000	2.340364   
1111.000000	2.413201   
1110.000000	2.481555   
1109.000000	2.550482   
1108.000000	2.613425   
1107.000000	2.657723   
1106.000000	2.683997   
1105.000000	2.700448   
1104.000000	2.710866   
1103.000000	2.716135   
1102.000000	2.724790   
1101.000000	2.761983   
1100.000000	2.848982   
1099.000000	2.976036   
1098.000000	3.163337   
1097.000000	3.574895   
1096.000000	4.363703   
1095.000000	5.259919   
1094.000000	5.580544   
1093.000000	4.912638   
1092.000000	3.642582   
1091.000000	2.582073   
1090.000000	2.179622   
1089.000000	2.251362   
1088.000000	2.377581   
1087.000000	2.361536   
1086.000000	2.291297   
1085.000000	2.286767   
1084.000000	2.333498   
1083.000000	2.383637   
1082.000000	2.452230   
1081.000000	2.541446   
1080.000000	2.598977   
1079.000000	2.612566   
1078.000000	2.639818   
1077.000000	2.714085   
1076.000000	2.809095   
1075.000000	2.925610   
1074.000000	3.085470   
1073.000000	3.258514   
1072.000000	3.373765   
1071.000000	3.407979   
1070.000000	3.411507   
1069.000000	3.463530   
1068.000000	3.606081   
1067.000000	3.821206   
1066.000000	4.024934   
1065.000000	4.148697   
1064.000000	4.224443   
1063.000000	4.374623   
1062.000000	4.656815   
1061.000000	5.004477   
1060.000000	5.326771   
1059.000000	5.636620   
1058.000000	6.012487   
1057.000000	6.508255   
1056.000000	7.108426   
1055.000000	7.759022   
1054.000000	8.407044   
1053.000000	9.049582   
1052.000000	9.743118   
1051.000000	10.546422  
1050.000000	11.443877  
1049.000000	12.350344  
1048.000000	13.199639  
1047.000000	14.024233  
1046.000000	14.934134  
1045.000000	16.001915  
1044.000000	17.166447  
1043.000000	18.263864  
1042.000000	19.147515  
1041.000000	19.791221  
1040.000000	20.279979  
1039.000000	20.731759  
1038.000000	21.208071  
1037.000000	21.692132  
1036.000000	22.119092  
1035.000000	22.450256  
1034.000000	22.705125  
1033.000000	22.952079  
1032.000000	23.243260  
1031.000000	23.572230  
1030.000000	23.864793  
1029.000000	24.036979  
1028.000000	24.077415  
1027.000000	24.082207  
1026.000000	24.171161  
1025.000000	24.374699  
1024.000000	24.615550  
1023.000000	24.809002  
1022.000000	24.948072  
1021.000000	25.092768  
1020.000000	25.309443  
1019.000000	25.623941  
1018.000000	26.009702  
1017.000000	26.410126  
1016.000000	26.777243  
1015.000000	27.098107  
1014.000000	27.394556  
1013.000000	27.699542  
1012.000000	28.032422  
1011.000000	28.390598  
1010.000000	28.756570  
1009.000000	29.108119  
1008.000000	29.425740  
1007.000000	29.703402  
1006.000000	29.966545  
1005.000000	30.254006  
1004.000000	30.581307  
1003.000000	30.909776  
1002.000000	31.175780  
1001.000000	31.356310  
1000.000000	31.506609  
999.000000	 31.695413  
998.000000	 31.915259  
997.000000	 32.089138  
996.000000	 32.162070  
995.000000	 32.148361  
994.000000	 32.082414  
993.000000	 31.974053  
992.000000	 31.810665  
991.000000	 31.586790  
990.000000	 31.303977  
989.000000	 30.983543  
988.000000	 30.652308  
987.000000	 30.339598  
986.000000	 30.037760  
985.000000	 29.704928  
984.000000	 29.266810  
983.000000	 28.671574  
982.000000	 27.915787  
981.000000	 27.061939  
980.000000	 26.191687  
979.000000	 25.371909  
978.000000	 24.615907  
977.000000	 23.887634  
976.000000	 23.125338  
975.000000	 22.292375  
974.000000	 21.391510  
973.000000	 20.451760  
972.000000	 19.516205  
971.000000	 18.638110  
970.000000	 17.839479  
969.000000	 17.080044  
968.000000	 16.310405  
967.000000	 15.547823  
966.000000	 14.835381  
965.000000	 14.156603  
964.000000	 13.457465  
963.000000	 12.748694  
962.000000	 12.097930  
961.000000	 11.541748  
960.000000	 11.050438  
959.000000	 10.583519  
958.000000	 10.113811  
957.000000	 9.633684   
956.000000	 9.152603   
955.000000	 8.704876   
954.000000	 8.314681   
953.000000	 7.984566   
952.000000	 7.693457   
951.000000	 7.421994   
950.000000	 7.156586   
949.000000	 6.896591   
948.000000	 6.641888   
947.000000	 6.396508   
946.000000	 6.163358   
945.000000	 5.924701   
944.000000	 5.630588   
943.000000	 5.259370   
942.000000	 4.876995   
941.000000	 4.590153   
940.000000	 4.438376   
939.000000	 4.369521   
938.000000	 4.317402   
937.000000	 4.255032   
936.000000	 4.176092   
935.000000	 4.070591   
934.000000	 3.940320   
933.000000	 3.812289   
932.000000	 3.717684   
931.000000	 3.638076   
930.000000	 3.512215   
929.000000	 3.309893   
928.000000	 3.088641   
927.000000	 2.935457   
926.000000	 2.879405   
925.000000	 2.872395   
924.000000	 2.843213   
923.000000	 2.738857   
922.000000	 2.552700   
921.000000	 2.338171   
920.000000	 2.176785   
919.000000	 2.115821   
918.000000	 2.141427   
917.000000	 2.206254   
916.000000	 2.269387   
915.000000	 2.310800   
914.000000	 2.328968   
913.000000	 2.331995   
912.000000	 2.320647   
911.000000	 2.283072   
910.000000	 2.202153   
909.000000	 2.076482   
908.000000	 1.950812   
907.000000	 1.902198   
906.000000	 1.960778   
905.000000	 2.069640   
904.000000	 2.145957   
903.000000	 2.154731   
902.000000	 2.086949   
901.000000	 1.945972   
900.000000	 1.808619   
899.000000	 1.811122   
898.000000	 1.987671   
897.000000	 2.192330   
896.000000	 2.247977   
895.000000	 2.137398   
894.000000	 1.994538   
893.000000	 1.959967   
892.000000	 2.071690   
891.000000	 2.263712   
890.000000	 2.434444   
889.000000	 2.534604   
888.000000	 2.592182   
887.000000	 2.665090   
886.000000	 2.784919   
885.000000	 2.942490   
884.000000	 3.120398   
883.000000	 3.324031   
882.000000	 3.574013   
881.000000	 3.858733   
880.000000	 4.129195   
879.000000	 4.371070   
878.000000	 4.644417   
877.000000	 4.996228   
876.000000	 5.382633   
875.000000	 5.726528   
874.000000	 6.015443   
873.000000	 6.302046   
872.000000	 6.623291   
871.000000	 6.984114   
870.000000	 7.375621   
869.000000	 7.786321   
868.000000	 8.181381   
867.000000	 8.520650   
866.000000	 8.781599   
865.000000	 8.985018   
864.000000	 9.169721   
863.000000	 9.344840   
862.000000	 9.455537   
861.000000	 9.415340   
860.000000	 9.180760   
859.000000	 8.792972   
858.000000	 8.340692   
857.000000	 7.880616   
856.000000	 7.403135   
855.000000	 6.873989   
854.000000	 6.303858   
853.000000	 5.764102   
852.000000	 5.355191   
851.000000	 5.133891   
850.000000	 5.065321   
849.000000	 5.049157   
848.000000	 5.007028   
847.000000	 4.936122   
846.000000	 4.839134   
845.000000	 4.701709   
844.000000	 4.525160   
843.000000	 4.366445   
842.000000	 4.266905   
841.000000	 4.200434   
840.000000	 4.114794   
839.000000	 4.004740   
838.000000	 3.918576   
837.000000	 3.918862   
836.000000	 4.071116   
835.000000	 4.478001   
834.000000	 5.273032   
833.000000	 6.488299   
832.000000	 7.912588   
831.000000	 9.134960   
830.000000	 9.779977   
829.000000	 9.699749   
828.000000	 9.005975   
827.000000	 7.988715   
826.000000	 6.987261   
825.000000	 6.215739   
824.000000	 5.671691   
823.000000	 5.229997   
822.000000	 4.803752   
821.000000	 4.405760   
820.000000	 4.081678   
819.000000	 3.853511   
818.000000	 3.688192   
817.000000	 3.516912   
816.000000	 3.294086   
815.000000	 3.078889   
814.000000	 2.979874   
813.000000	 3.025841   
812.000000	 3.120636   
811.000000	 3.153777   
810.000000	 3.110408   
809.000000	 3.038430   
808.000000	 2.982640   
807.000000	 2.959632   
806.000000	 2.986311   
805.000000	 3.090620   
804.000000	 3.282332   
803.000000	 3.530454   
802.000000	 3.787255   
801.000000	 4.044032   
800.000000	 4.317212   
799.000000	 4.622983   
798.000000	 4.975652   
797.000000	 5.421972   
796.000000	 5.967688   
795.000000	 6.564545   
794.000000	 7.168602   
793.000000	 7.841777   
792.000000	 8.656072   
791.000000	 9.630417   
790.000000	 10.721421  
789.000000	 11.921215  
788.000000	 13.213610  
787.000000	 14.570331  
786.000000	 15.949821  
785.000000	 17.366480  
784.000000	 18.870043  
783.000000	 20.522332  
782.000000	 22.338199  
781.000000	 24.295234  
780.000000	 26.356244  
779.000000	 28.495144  
778.000000	 30.694556  
777.000000	 32.977557  
776.000000	 35.408425  
775.000000	 37.996602  
774.000000	 40.627717  
773.000000	 43.169713  
772.000000	 45.631098  
771.000000	 48.125982  
770.000000	 50.705122  
769.000000	 53.303241  
768.000000	 55.839061  
767.000000	 58.304476  
766.000000	 60.720801  
765.000000	 63.075709  
764.000000	 65.299892  
763.000000	 67.350673  
762.000000	 69.261527  
761.000000	 71.149086  
760.000000	 73.082971  
759.000000	 75.022268  
758.000000	 76.846790  
757.000000	 78.510761  
756.000000	 80.034518  
755.000000	 81.406068  
754.000000	 82.568144  
753.000000	 83.553504  
752.000000	 84.476208  
751.000000	 85.385942  
750.000000	 86.235761  
749.000000	 86.989760  
748.000000	 87.639045  
747.000000	 88.126158  
746.000000	 88.411760  
745.000000	 88.643145  
744.000000	 89.035654  
743.000000	 89.616894  
742.000000	 90.232992  
741.000000	 90.624737  
740.000000	 90.679979  
739.000000	 90.507864  
738.000000	 90.302824  
737.000000	 90.106773  
736.000000	 89.890837  
735.000000	 89.591336  
734.000000	 89.157509  
733.000000	 89.070892  
732.000000	 90.779471  
731.000000	 95.088958  
730.000000	 99.907827  
729.000000	 101.345396 
728.000000	 97.865056  
727.000000	 91.998362  
726.000000	 87.402772  
725.000000	 85.468792  
724.000000	 85.215115  
723.000000	 85.232353  
722.000000	 84.926223  
721.000000	 84.409546  
720.000000	 83.855867  
719.000000	 83.267760  
718.000000	 82.705354  
717.000000	 82.299900  
716.000000	 81.967496  
715.000000	 81.494140  
714.000000	 80.870413  
713.000000	 80.294942  
712.000000	 79.831838  
711.000000	 79.430985  
710.000000	 79.134798  
709.000000	 78.871250  
708.000000	 78.418564  
707.000000	 77.677345  
706.000000	 76.858496  
705.000000	 76.253032  
704.000000	 75.901770  
703.000000	 75.603628  
702.000000	 75.134539  
701.000000	 74.377584  
700.000000	 73.366570  

